# onset,offset,note,velocity,instrument
0.000000	0.249479	58.000000	49.000000	71.000000
0.250000	0.374479	53.000000	49.000000	71.000000
0.375000	0.624479	58.000000	49.000000	71.000000
0.625000	0.874479	58.000000	49.000000	71.000000
0.875000	0.999479	53.000000	49.000000	71.000000
1.000000	1.249479	58.000000	49.000000	71.000000
1.250000	1.374479	53.000000	49.000000	71.000000
1.375000	1.624479	58.000000	49.000000	71.000000
1.625000	1.874479	58.000000	49.000000	71.000000
1.875000	1.999479	53.000000	49.000000	71.000000
2.000000	2.249479	58.000000	49.000000	71.000000
2.250000	2.374479	65.000000	52.000000	71.000000
2.375000	2.624479	70.000000	54.000000	71.000000
2.625000	2.874479	70.000000	58.000000	71.000000
2.875000	2.999479	77.000000	62.000000	71.000000
3.000000	3.124479	82.000000	64.000000	71.000000
3.125000	3.166146	80.000000	64.000000	71.000000
3.166667	3.207813	82.000000	64.000000	71.000000
3.208333	3.249479	80.000000	64.000000	71.000000
3.250000	3.374479	79.000000	64.000000	71.000000
3.375000	3.499479	80.000000	64.000000	71.000000
3.500000	3.624479	82.000000	64.000000	71.000000
3.625000	3.749479	80.000000	64.000000	71.000000
3.750000	3.874479	79.000000	64.000000	71.000000
3.875000	3.999479	77.000000	64.000000	71.000000
4.000000	4.124479	76.000000	64.000000	71.000000
4.125000	4.249479	77.000000	64.000000	71.000000
4.250000	4.374479	79.000000	64.000000	71.000000
4.375000	4.499479	77.000000	64.000000	71.000000
4.500000	4.624479	76.000000	64.000000	71.000000
4.625000	4.666146	73.000000	64.000000	71.000000
4.666667	4.707813	76.000000	64.000000	71.000000
4.708333	4.749479	73.000000	64.000000	71.000000
4.750000	4.874479	72.000000	64.000000	71.000000
4.875000	4.999479	70.000000	64.000000	71.000000
5.000000	5.124479	82.000000	64.000000	71.000000
5.125000	5.166146	80.000000	64.000000	71.000000
5.166667	5.207813	82.000000	64.000000	71.000000
5.208333	5.249479	80.000000	64.000000	71.000000
5.250000	5.374479	79.000000	64.000000	71.000000
5.375000	5.499479	80.000000	64.000000	71.000000
5.500000	5.624479	82.000000	64.000000	71.000000
5.625000	5.749479	80.000000	64.000000	71.000000
5.750000	5.874479	79.000000	64.000000	71.000000
5.875000	5.999479	77.000000	64.000000	71.000000
6.000000	6.124479	76.000000	64.000000	71.000000
6.125000	6.249479	77.000000	64.000000	71.000000
6.250000	6.374479	79.000000	64.000000	71.000000
6.375000	6.499479	77.000000	64.000000	71.000000
6.500000	6.624479	76.000000	64.000000	71.000000
6.625000	6.666146	73.000000	64.000000	71.000000
6.666667	6.707813	77.000000	64.000000	71.000000
6.708333	6.749479	73.000000	64.000000	71.000000
6.750000	6.874479	72.000000	64.000000	71.000000
6.875000	6.999479	70.000000	64.000000	71.000000
7.000000	7.124479	74.000000	64.000000	71.000000
7.125000	7.249479	70.000000	64.000000	71.000000
7.250000	7.374479	65.000000	64.000000	71.000000
7.375000	7.499479	77.000000	64.000000	71.000000
7.500000	7.624479	74.000000	64.000000	71.000000
7.625000	7.749479	70.000000	64.000000	71.000000
7.750000	7.791146	72.000000	64.000000	71.000000
7.791667	7.832813	74.000000	64.000000	71.000000
7.833333	7.874479	72.000000	64.000000	71.000000
7.875000	7.999479	70.000000	64.000000	71.000000
8.000000	8.124479	82.000000	64.000000	71.000000
8.125000	8.249479	80.000000	64.000000	71.000000
8.250000	8.374479	79.000000	64.000000	71.000000
8.375000	8.499479	77.000000	64.000000	71.000000
8.500000	8.624479	76.000000	64.000000	71.000000
8.625000	8.666146	73.000000	64.000000	71.000000
8.666667	8.707813	76.000000	64.000000	71.000000
8.708333	8.749479	73.000000	64.000000	71.000000
8.750000	8.874479	72.000000	64.000000	71.000000
8.875000	8.999479	70.000000	64.000000	71.000000
9.000000	9.124479	74.000000	64.000000	71.000000
9.125000	9.249479	70.000000	64.000000	71.000000
9.250000	9.374479	65.000000	64.000000	71.000000
9.375000	9.416146	77.000000	64.000000	71.000000
9.416667	9.457813	79.000000	64.000000	71.000000
9.458333	9.499479	77.000000	64.000000	71.000000
9.500000	9.624479	74.000000	64.000000	71.000000
9.625000	9.749479	70.000000	64.000000	71.000000
9.750000	9.874479	72.000000	64.000000	71.000000
9.875000	9.999479	70.000000	64.000000	71.000000
10.000000	10.249479	58.000000	64.000000	71.000000
10.250000	10.374479	53.000000	64.000000	71.000000
10.375000	10.624479	58.000000	64.000000	71.000000
10.625000	10.749479	53.000000	64.000000	71.000000
10.750000	10.874479	58.000000	64.000000	71.000000
10.875000	10.999479	59.000000	64.000000	71.000000
11.000000	11.249479	60.000000	64.000000	71.000000
11.250000	11.374479	55.000000	64.000000	71.000000
11.375000	11.624479	60.000000	64.000000	71.000000
11.625000	11.874479	60.000000	64.000000	71.000000
11.875000	11.999479	55.000000	64.000000	71.000000
12.000000	12.249479	60.000000	64.000000	71.000000
12.250000	12.374479	55.000000	76.000000	71.000000
12.375000	12.624479	60.000000	82.000000	71.000000
12.625000	12.874479	60.000000	94.000000	71.000000
12.875000	12.999479	67.000000	106.000000	71.000000
13.000000	13.061979	72.000000	112.000000	71.000000
13.062500	13.124479	79.000000	112.000000	71.000000
13.125000	13.186979	84.000000	112.000000	71.000000
13.187500	13.249479	82.000000	112.000000	71.000000
13.250000	13.374479	81.000000	112.000000	71.000000
13.375000	13.499479	82.000000	112.000000	71.000000
13.500000	13.624479	84.000000	112.000000	71.000000
13.625000	13.749479	82.000000	107.000000	71.000000
13.750000	13.874479	81.000000	101.000000	71.000000
13.875000	13.999479	79.000000	96.000000	71.000000
14.000000	14.061979	78.000000	94.000000	71.000000
14.062500	14.124479	79.000000	94.000000	71.000000
14.125000	14.186979	81.000000	94.000000	71.000000
14.187500	14.249479	82.000000	94.000000	71.000000
14.250000	14.374479	81.000000	94.000000	71.000000
14.375000	14.499479	79.000000	94.000000	71.000000
14.500000	14.624479	78.000000	112.000000	71.000000
14.625000	14.749479	75.000000	107.000000	71.000000
14.750000	14.874479	74.000000	101.000000	71.000000
14.875000	14.999479	72.000000	96.000000	71.000000
15.000000	15.041146	67.000000	49.000000	71.000000
15.041667	15.082812	72.000000	49.000000	71.000000
15.083333	15.124479	79.000000	49.000000	71.000000
15.125000	15.186979	84.000000	49.000000	71.000000
15.187500	15.249479	82.000000	49.000000	71.000000
15.250000	15.374479	81.000000	49.000000	71.000000
15.375000	15.499479	82.000000	49.000000	71.000000
15.500000	15.624479	84.000000	49.000000	71.000000
15.625000	15.749479	82.000000	49.000000	71.000000
15.750000	15.874479	81.000000	49.000000	71.000000
15.875000	15.999479	79.000000	49.000000	71.000000
16.000000	16.061979	78.000000	49.000000	71.000000
16.062500	16.124479	79.000000	49.000000	71.000000
16.125000	16.186979	81.000000	49.000000	71.000000
16.187500	16.249479	82.000000	49.000000	71.000000
16.250000	16.374479	81.000000	49.000000	71.000000
16.375000	16.499479	79.000000	49.000000	71.000000
16.500000	16.624479	78.000000	49.000000	71.000000
16.625000	16.749479	75.000000	49.000000	71.000000
16.750000	16.874479	74.000000	49.000000	71.000000
16.875000	16.999479	72.000000	49.000000	71.000000
17.000000	17.124479	76.000000	80.000000	71.000000
17.125000	17.249479	72.000000	80.000000	71.000000
17.250000	17.374479	67.000000	80.000000	71.000000
17.375000	17.499479	79.000000	80.000000	71.000000
17.500000	17.624479	76.000000	80.000000	71.000000
17.625000	17.749479	72.000000	80.000000	71.000000
17.750000	17.791146	74.000000	80.000000	71.000000
17.791667	17.832812	76.000000	80.000000	71.000000
17.833333	17.874479	74.000000	80.000000	71.000000
17.875000	17.999479	72.000000	80.000000	71.000000
18.000000	18.041146	67.000000	80.000000	71.000000
18.041667	18.082813	72.000000	80.000000	71.000000
18.083333	18.124479	79.000000	80.000000	71.000000
18.125000	18.186979	84.000000	112.000000	71.000000
18.187500	18.249479	82.000000	110.000000	71.000000
18.250000	18.374479	81.000000	107.000000	71.000000
18.375000	18.499479	79.000000	101.000000	71.000000
18.500000	18.624479	78.000000	96.000000	71.000000
18.625000	18.749479	75.000000	94.000000	71.000000
18.750000	18.874479	74.000000	94.000000	71.000000
18.875000	18.999479	72.000000	94.000000	71.000000
19.000000	19.124479	76.000000	94.000000	71.000000
19.125000	19.249479	72.000000	94.000000	71.000000
19.250000	19.374479	67.000000	94.000000	71.000000
19.375000	19.499479	79.000000	94.000000	71.000000
19.500000	19.624479	76.000000	94.000000	71.000000
19.625000	19.749479	72.000000	94.000000	71.000000
19.750000	19.791146	74.000000	94.000000	71.000000
19.791667	19.832813	76.000000	94.000000	71.000000
19.833333	19.874479	74.000000	94.000000	71.000000
19.875000	19.999479	72.000000	94.000000	71.000000
20.000000	20.249479	60.000000	49.000000	71.000000
20.250000	20.374479	55.000000	49.000000	71.000000
20.375000	20.624479	60.000000	49.000000	71.000000
20.625000	20.749479	67.000000	49.000000	71.000000
20.750000	20.811979	68.000000	49.000000	71.000000
20.812500	20.874479	75.000000	49.000000	71.000000
20.875000	20.936979	76.000000	49.000000	71.000000
20.937500	20.999479	81.000000	49.000000	71.000000
21.000000	21.124479	86.000000	112.000000	71.000000
21.250000	21.374479	57.000000	101.000000	71.000000
21.375000	21.624479	62.000000	96.000000	71.000000
21.625000	21.874479	62.000000	112.000000	71.000000
21.875000	21.999479	57.000000	101.000000	71.000000
22.000000	22.249479	62.000000	112.000000	71.000000
22.250000	22.374479	57.000000	102.000000	71.000000
22.375000	22.624479	62.000000	96.000000	71.000000
22.625000	22.874479	62.000000	112.000000	71.000000
22.875000	22.999479	69.000000	101.000000	71.000000
23.000000	23.124479	74.000000	96.000000	71.000000
23.125000	23.249479	81.000000	94.000000	71.000000
23.250000	23.374479	81.000000	94.000000	71.000000
23.375000	23.499479	83.000000	94.000000	71.000000
23.500000	23.624479	81.000000	94.000000	71.000000
23.625000	23.749479	79.000000	94.000000	71.000000
23.750000	23.874479	78.000000	94.000000	71.000000
23.875000	23.999479	74.000000	94.000000	71.000000
24.000000	24.124479	78.000000	94.000000	71.000000
24.125000	24.249479	78.000000	94.000000	71.000000
24.250000	24.311979	74.000000	94.000000	71.000000
24.312500	24.374479	76.000000	94.000000	71.000000
24.375000	24.499479	78.000000	94.000000	71.000000
24.625000	24.749479	76.000000	94.000000	71.000000
24.750000	24.874479	74.000000	94.000000	71.000000
24.875000	24.999479	69.000000	94.000000	71.000000
25.000000	25.124479	74.000000	49.000000	71.000000
25.125000	25.249479	81.000000	49.000000	71.000000
25.250000	25.374479	81.000000	49.000000	71.000000
25.375000	25.499479	83.000000	49.000000	71.000000
25.500000	25.624479	81.000000	49.000000	71.000000
25.625000	25.749479	79.000000	49.000000	71.000000
25.750000	25.874479	78.000000	49.000000	71.000000
25.875000	25.999479	74.000000	49.000000	71.000000
26.000000	26.124479	66.000000	96.000000	71.000000
26.125000	26.249479	66.000000	96.000000	71.000000
26.250000	26.311979	62.000000	96.000000	71.000000
26.312500	26.374479	64.000000	96.000000	71.000000
26.375000	26.499479	66.000000	96.000000	71.000000
26.625000	26.749479	64.000000	96.000000	71.000000
26.750000	26.874479	62.000000	96.000000	71.000000
26.875000	26.999479	57.000000	96.000000	71.000000
27.000000	27.124479	62.000000	96.000000	71.000000
27.125000	27.249479	62.000000	96.000000	71.000000
27.250000	27.374479	62.000000	96.000000	71.000000
27.375000	27.499479	57.000000	96.000000	71.000000
27.500000	27.624479	62.000000	96.000000	71.000000
27.625000	27.749479	64.000000	96.000000	71.000000
27.750000	27.874479	66.000000	96.000000	71.000000
27.875000	27.999479	69.000000	96.000000	71.000000
28.000000	28.124479	78.000000	49.000000	71.000000
28.125000	28.249479	78.000000	49.000000	71.000000
28.250000	28.311979	74.000000	49.000000	71.000000
28.312500	28.374479	76.000000	49.000000	71.000000
28.375000	28.499479	78.000000	49.000000	71.000000
28.625000	28.749479	76.000000	49.000000	71.000000
28.750000	28.874479	74.000000	49.000000	71.000000
28.875000	28.999479	69.000000	49.000000	71.000000
29.000000	29.124479	74.000000	49.000000	71.000000
29.125000	29.249479	74.000000	49.000000	71.000000
29.250000	29.374479	74.000000	49.000000	71.000000
29.375000	29.499479	69.000000	49.000000	71.000000
29.500000	29.624479	74.000000	49.000000	71.000000
29.625000	29.749479	76.000000	49.000000	71.000000
29.750000	29.999479	78.000000	112.000000	71.000000
30.000000	30.124479	66.000000	101.000000	71.000000
30.125000	30.249479	66.000000	96.000000	71.000000
30.250000	30.311979	62.000000	112.000000	71.000000
30.312500	30.374479	64.000000	110.000000	71.000000
30.375000	30.499479	66.000000	107.000000	71.000000
30.625000	30.749479	64.000000	96.000000	71.000000
30.750000	30.874479	62.000000	94.000000	71.000000
30.875000	30.999479	69.000000	94.000000	71.000000
31.000000	31.124479	74.000000	112.000000	71.000000
31.250000	31.374479	57.000000	101.000000	71.000000
31.375000	31.624479	62.000000	96.000000	71.000000
31.625000	31.874479	62.000000	94.000000	71.000000
31.875000	31.999479	57.000000	94.000000	71.000000
32.000000	32.249479	62.000000	94.000000	71.000000
32.250000	32.374479	57.000000	98.000000	71.000000
32.375000	32.624479	62.000000	100.000000	71.000000
32.625000	32.749479	66.000000	105.000000	71.000000
32.750000	32.832813	69.000000	107.000000	71.000000
32.833333	32.916146	74.000000	109.000000	71.000000
32.916667	32.999479	77.000000	110.000000	71.000000
33.000000	33.124479	81.000000	112.000000	71.000000
33.125000	33.249479	81.000000	112.000000	71.000000
33.250000	33.374479	81.000000	112.000000	71.000000
33.375000	33.499479	83.000000	112.000000	71.000000
33.500000	33.624479	81.000000	112.000000	71.000000
33.625000	33.749479	79.000000	112.000000	71.000000
33.750000	33.874479	78.000000	112.000000	71.000000
33.875000	33.999479	74.000000	112.000000	71.000000
36.000000	36.124479	69.000000	49.000000	71.000000
36.125000	36.249479	69.000000	49.000000	71.000000
36.250000	36.311979	65.000000	49.000000	71.000000
36.312500	36.374479	67.000000	49.000000	71.000000
36.375000	36.499479	69.000000	49.000000	71.000000
36.625000	36.749479	67.000000	49.000000	71.000000
36.750000	36.874479	65.000000	49.000000	71.000000
36.875000	36.999479	72.000000	49.000000	71.000000
37.000000	37.124479	77.000000	112.000000	71.000000
37.125000	37.249479	84.000000	112.000000	71.000000
37.250000	37.374479	84.000000	112.000000	71.000000
37.375000	37.499479	86.000000	112.000000	71.000000
37.500000	37.624479	84.000000	112.000000	71.000000
37.625000	37.749479	82.000000	112.000000	71.000000
37.750000	37.874479	81.000000	112.000000	71.000000
37.875000	37.999479	77.000000	112.000000	71.000000
40.000000	40.124479	72.000000	49.000000	71.000000
40.125000	40.249479	72.000000	49.000000	71.000000
40.250000	40.311979	68.000000	49.000000	71.000000
40.312500	40.374479	70.000000	49.000000	71.000000
40.375000	40.499479	72.000000	49.000000	71.000000
40.625000	40.749479	70.000000	49.000000	71.000000
40.750000	40.874479	68.000000	70.000000	71.000000
40.875000	40.999479	63.000000	91.000000	71.000000
41.000000	41.124479	62.000000	112.000000	71.000000
41.125000	41.249479	62.000000	112.000000	71.000000
41.250000	41.374479	62.000000	112.000000	71.000000
41.375000	41.499479	57.000000	112.000000	71.000000
41.500000	41.624479	62.000000	112.000000	71.000000
41.625000	41.749479	64.000000	112.000000	71.000000
41.750000	41.874479	66.000000	112.000000	71.000000
41.875000	41.999479	69.000000	112.000000	71.000000
44.000000	44.124479	78.000000	49.000000	71.000000
44.125000	44.249479	78.000000	49.000000	71.000000
44.250000	44.311979	74.000000	49.000000	71.000000
44.312500	44.374479	76.000000	49.000000	71.000000
44.375000	44.499479	78.000000	49.000000	71.000000
44.625000	44.749479	76.000000	49.000000	71.000000
44.750000	44.874479	74.000000	70.000000	71.000000
44.875000	44.999479	69.000000	91.000000	71.000000
45.000000	45.124479	70.000000	112.000000	71.000000
45.125000	45.249479	70.000000	112.000000	71.000000
45.250000	45.374479	70.000000	112.000000	71.000000
45.375000	45.499479	66.000000	112.000000	71.000000
45.500000	45.561979	71.000000	112.000000	71.000000
45.562500	45.624479	73.000000	112.000000	71.000000
45.625000	45.749479	75.000000	112.000000	71.000000
45.750000	45.811979	72.000000	112.000000	71.000000
45.812500	45.874479	74.000000	112.000000	71.000000
45.875000	45.999479	76.000000	112.000000	71.000000
46.000000	46.124479	79.000000	112.000000	71.000000
46.125000	46.249479	86.000000	112.000000	71.000000
46.250000	46.311979	82.000000	112.000000	71.000000
46.312500	46.374479	84.000000	112.000000	71.000000
46.375000	46.499479	86.000000	112.000000	71.000000
46.500000	46.561979	83.000000	112.000000	71.000000
46.562500	46.624479	85.000000	112.000000	71.000000
46.625000	46.749479	87.000000	112.000000	71.000000
46.750000	46.811979	84.000000	112.000000	71.000000
46.812500	46.874479	86.000000	112.000000	71.000000
46.875000	46.999479	88.000000	112.000000	71.000000
47.000000	47.061979	89.000000	112.000000	71.000000
47.250000	47.374479	53.000000	101.000000	71.000000
47.375000	47.624479	53.000000	96.000000	71.000000
47.625000	47.874479	53.000000	94.000000	71.000000
47.875000	47.999479	53.000000	94.000000	71.000000
48.000000	48.249479	53.000000	94.000000	71.000000
48.250000	48.374479	54.000000	94.000000	71.000000
48.375000	48.624479	55.000000	94.000000	71.000000
48.625000	48.874479	56.000000	94.000000	71.000000
48.875000	48.999479	57.000000	94.000000	71.000000
49.000000	49.114904	58.000000	112.000000	71.000000
51.230769	51.345673	53.000000	102.000000	71.000000
51.346154	51.576442	58.000000	97.000000	71.000000
51.576923	51.807211	58.000000	94.000000	71.000000
51.807692	51.922595	53.000000	94.000000	71.000000
51.923076	52.153364	58.000000	94.000000	71.000000
52.153845	52.268749	65.000000	94.000000	71.000000
52.269230	52.499518	70.000000	94.000000	71.000000
52.499999	52.730287	70.000000	95.000000	71.000000
52.730768	52.845671	77.000000	95.000000	71.000000
52.846152	52.961056	82.000000	96.000000	71.000000
52.961537	52.999517	80.000000	96.000000	71.000000
52.999998	53.037979	82.000000	96.000000	71.000000
53.038460	53.076440	80.000000	96.000000	71.000000
53.076921	53.191825	79.000000	96.000000	71.000000
53.192306	53.307209	80.000000	96.000000	71.000000
53.307690	53.422594	82.000000	96.000000	71.000000
53.423075	53.537978	80.000000	96.000000	71.000000
53.538459	53.653363	79.000000	96.000000	71.000000
53.653844	53.768747	77.000000	96.000000	71.000000
53.769228	53.884132	76.000000	96.000000	71.000000
53.884613	53.999516	77.000000	96.000000	71.000000
53.999997	54.114901	79.000000	96.000000	71.000000
54.115382	54.230285	77.000000	96.000000	71.000000
54.230766	54.345670	76.000000	96.000000	71.000000
54.346151	54.384131	73.000000	96.000000	71.000000
54.384612	54.422593	76.000000	96.000000	71.000000
54.423074	54.461054	73.000000	96.000000	71.000000
54.461535	54.576439	72.000000	96.000000	71.000000
54.576920	54.691823	70.000000	96.000000	71.000000
54.692304	54.807208	82.000000	96.000000	71.000000
54.807689	54.845669	80.000000	96.000000	71.000000
54.846150	54.884131	82.000000	96.000000	71.000000
54.884612	54.922592	80.000000	96.000000	71.000000
54.923073	55.037977	79.000000	96.000000	71.000000
55.038458	55.153361	80.000000	96.000000	71.000000
55.153842	55.268746	82.000000	96.000000	71.000000
55.269227	55.384130	80.000000	96.000000	71.000000
55.384611	55.499515	79.000000	96.000000	71.000000
55.499996	55.614899	77.000000	96.000000	71.000000
55.615380	55.730284	76.000000	96.000000	71.000000
55.730765	55.845668	77.000000	96.000000	71.000000
55.846149	55.961053	79.000000	96.000000	71.000000
55.961534	56.076437	77.000000	96.000000	71.000000
56.076918	56.191822	76.000000	96.000000	71.000000
56.192303	56.230283	73.000000	96.000000	71.000000
56.230764	56.268745	76.000000	96.000000	71.000000
56.269226	56.307206	73.000000	96.000000	71.000000
56.307687	56.422591	72.000000	96.000000	71.000000
56.423072	56.537975	70.000000	96.000000	71.000000
56.538456	56.653360	74.000000	96.000000	71.000000
56.653841	56.768744	70.000000	96.000000	71.000000
56.769225	56.884129	65.000000	96.000000	71.000000
56.884610	56.999513	77.000000	96.000000	71.000000
56.999994	57.114898	74.000000	96.000000	71.000000
