# onset,offset,note,velocity,instrument
0.000000	0.207465	51.000000	96.000000	71.000000
0.208333	0.624132	70.000000	96.000000	71.000000
0.625000	0.832466	51.000000	96.000000	71.000000
0.833334	1.249133	70.000000	96.000000	71.000000
1.250001	1.457466	51.000000	96.000000	71.000000
1.458335	1.874133	70.000000	96.000000	71.000000
1.875002	2.082467	51.000000	96.000000	71.000000
2.083335	2.499134	70.000000	96.000000	71.000000
2.500002	2.638023	51.000000	49.000000	71.000000
2.638891	2.776912	53.000000	49.000000	71.000000
2.777780	2.915801	58.000000	49.000000	71.000000
2.916669	3.054690	55.000000	49.000000	71.000000
3.055558	3.193579	53.000000	49.000000	71.000000
3.194447	3.332468	55.000000	49.000000	71.000000
3.333336	3.540801	51.000000	96.000000	71.000000
3.541669	3.957468	70.000000	96.000000	71.000000
3.958336	4.165802	51.000000	96.000000	71.000000
4.166670	4.582469	70.000000	96.000000	71.000000
4.583337	4.790802	51.000000	96.000000	71.000000
4.791670	5.138025	70.000000	96.000000	71.000000
5.138893	5.276914	58.000000	49.000000	71.000000
5.277782	5.415803	60.000000	49.000000	71.000000
5.416671	5.554692	63.000000	53.000000	71.000000
5.555560	5.693581	60.000000	58.000000	71.000000
5.694449	5.832470	63.000000	63.000000	71.000000
5.833338	5.915803	65.000000	67.000000	71.000000
5.916671	5.999137	63.000000	70.000000	71.000000
6.000005	6.082470	60.000000	73.000000	71.000000
6.083338	6.165804	63.000000	76.000000	71.000000
6.166672	6.249137	65.000000	79.000000	71.000000
6.250005	6.388026	67.000000	81.000000	71.000000
6.388894	6.526915	65.000000	86.000000	71.000000
6.527783	6.665804	67.000000	91.000000	71.000000
6.666672	6.874137	51.000000	96.000000	71.000000
6.875005	7.290804	70.000000	96.000000	71.000000
7.291672	7.499138	51.000000	96.000000	71.000000
7.500006	7.915805	70.000000	96.000000	71.000000
7.916673	8.124138	51.000000	96.000000	71.000000
8.125006	8.540805	70.000000	96.000000	71.000000
8.541673	8.749139	51.000000	96.000000	71.000000
8.750007	9.165806	70.000000	96.000000	71.000000
9.250007	9.332473	60.000000	49.000000	71.000000
9.333341	9.415806	63.000000	49.000000	71.000000
9.416674	9.499140	60.000000	49.000000	71.000000
9.500008	9.582473	58.000000	49.000000	71.000000
9.583341	9.721362	55.000000	49.000000	71.000000
9.722230	9.860251	53.000000	49.000000	71.000000
9.861119	9.999140	55.000000	49.000000	71.000000
10.000008	10.207473	51.000000	96.000000	71.000000
10.208341	10.624140	70.000000	96.000000	71.000000
10.625008	10.832474	51.000000	96.000000	71.000000
10.833342	11.249141	70.000000	96.000000	71.000000
11.250009	11.457474	51.000000	96.000000	71.000000
11.458342	11.804697	70.000000	96.000000	71.000000
11.805565	11.943586	58.000000	49.000000	71.000000
11.944454	12.082475	60.000000	51.000000	71.000000
12.083343	12.221364	63.000000	54.000000	71.000000
12.222232	12.360253	60.000000	57.000000	71.000000
12.361121	12.499142	63.000000	60.000000	71.000000
12.500010	12.638031	65.000000	63.000000	71.000000
12.638899	12.776920	63.000000	65.000000	71.000000
12.777788	12.915809	65.000000	68.000000	71.000000
12.916677	12.999142	67.000000	71.000000	71.000000
13.000010	13.082476	65.000000	73.000000	71.000000
13.083344	13.165809	67.000000	74.000000	71.000000
13.166677	13.249143	70.000000	76.000000	71.000000
13.250011	13.332476	72.000000	78.000000	71.000000
13.333344	13.540809	75.000000	80.000000	71.000000
13.541677	13.749143	75.000000	80.000000	71.000000
13.750011	13.957476	72.000000	80.000000	71.000000
14.166678	14.374143	70.000000	80.000000	71.000000
14.583345	14.790810	65.000000	80.000000	71.000000
14.791678	15.415811	67.000000	80.000000	71.000000
15.416679	15.832478	51.000000	80.000000	71.000000
15.833346	16.040811	67.000000	80.000000	71.000000
16.041679	16.249145	70.000000	80.000000	71.000000
16.250013	16.665812	67.000000	80.000000	71.000000
16.666680	16.699666	65.000000	80.000000	71.000000
16.700534	16.733520	67.000000	80.000000	71.000000
16.735256	16.768243	70.000000	80.000000	71.000000
16.770847	16.874145	72.000000	80.000000	71.000000
17.291680	17.499146	65.000000	80.000000	71.000000
17.916681	18.749147	63.000000	80.000000	71.000000
18.750015	19.165814	51.000000	80.000000	71.000000
19.166682	19.304703	58.000000	80.000000	71.000000
19.305571	19.443592	60.000000	80.000000	71.000000
19.444460	19.582481	58.000000	80.000000	71.000000
19.583349	19.790814	55.000000	80.000000	71.000000
20.000016	20.033002	67.000000	80.000000	71.000000
20.033870	20.066856	70.000000	80.000000	71.000000
20.068592	20.101579	72.000000	80.000000	71.000000
20.104183	20.207481	75.000000	80.000000	71.000000
20.208349	20.415815	75.000000	80.000000	71.000000
20.416683	20.624148	72.000000	80.000000	71.000000
20.833350	21.040815	70.000000	80.000000	71.000000
21.250017	21.457482	65.000000	80.000000	71.000000
21.458350	22.082483	67.000000	80.000000	71.000000
22.083351	22.499150	51.000000	80.000000	71.000000
22.500018	22.707483	67.000000	80.000000	71.000000
22.708351	22.915817	70.000000	80.000000	71.000000
22.916685	23.332484	67.000000	80.000000	71.000000
23.333352	23.366338	65.000000	80.000000	71.000000
23.367206	23.400192	67.000000	80.000000	71.000000
23.401928	23.434915	70.000000	80.000000	71.000000
23.437519	23.540817	72.000000	80.000000	71.000000
23.958352	24.165818	65.000000	80.000000	71.000000
24.583353	25.415819	63.000000	80.000000	71.000000
25.416687	25.624152	51.000000	80.000000	71.000000
25.625020	25.832486	51.000000	80.000000	71.000000
25.833354	25.971375	58.000000	80.000000	71.000000
25.972243	26.110264	60.000000	75.000000	71.000000
26.111132	26.249153	58.000000	70.000000	71.000000
26.250021	26.388042	55.000000	65.000000	71.000000
26.388910	26.526931	53.000000	60.000000	71.000000
26.527799	26.665820	55.000000	55.000000	71.000000
26.666688	26.874153	60.000000	49.000000	71.000000
26.875021	27.082487	63.000000	49.000000	71.000000
27.083355	27.290820	58.000000	49.000000	71.000000
27.291688	27.499154	60.000000	49.000000	71.000000
27.500022	27.568598	63.000000	49.000000	71.000000
27.569466	27.638043	60.000000	49.000000	71.000000
27.638911	27.707487	63.000000	49.000000	71.000000
27.916689	28.124154	60.000000	49.000000	71.000000
28.125022	28.332488	63.000000	49.000000	71.000000
28.333356	28.540821	58.000000	49.000000	71.000000
28.541689	28.749155	60.000000	49.000000	71.000000
28.750023	28.818599	63.000000	49.000000	71.000000
28.819467	28.888044	60.000000	49.000000	71.000000
28.888912	28.957488	63.000000	49.000000	71.000000
29.166690	29.374155	51.000000	49.000000	71.000000
29.583357	29.646725	58.000000	49.000000	71.000000
29.647593	29.789954	60.000000	49.000000	71.000000
29.791690	29.999156	63.000000	49.000000	71.000000
30.000024	30.207489	58.000000	49.000000	71.000000
30.208357	30.415823	60.000000	49.000000	71.000000
30.416691	30.485267	63.000000	49.000000	71.000000
30.486135	30.554712	60.000000	49.000000	71.000000
30.555580	30.624156	63.000000	49.000000	71.000000
30.833358	31.040823	60.000000	49.000000	71.000000
31.041691	31.249157	63.000000	49.000000	71.000000
31.250025	31.457490	58.000000	49.000000	71.000000
31.458358	31.665824	60.000000	49.000000	71.000000
31.666692	31.874157	53.000000	49.000000	71.000000
31.875025	32.082491	55.000000	49.000000	71.000000
32.083359	32.290824	58.000000	49.000000	71.000000
32.291692	32.499158	55.000000	49.000000	71.000000
32.500026	32.707491	60.000000	49.000000	71.000000
32.708359	32.915825	63.000000	49.000000	71.000000
32.916693	33.124158	58.000000	49.000000	71.000000
33.125026	33.332492	60.000000	49.000000	71.000000
33.333360	33.401936	63.000000	49.000000	71.000000
33.402804	33.471381	60.000000	49.000000	71.000000
33.472249	33.540825	63.000000	49.000000	71.000000
33.750027	33.957492	60.000000	49.000000	71.000000
33.958360	34.165826	63.000000	49.000000	71.000000
34.166694	34.374159	58.000000	49.000000	71.000000
34.375027	34.582493	60.000000	49.000000	71.000000
34.583361	34.651937	63.000000	49.000000	71.000000
34.652805	34.721382	60.000000	49.000000	71.000000
34.722250	34.790826	63.000000	49.000000	71.000000
35.000028	35.207493	51.000000	49.000000	71.000000
35.416695	35.480063	58.000000	49.000000	71.000000
35.480931	35.623292	60.000000	49.000000	71.000000
35.625028	35.832494	63.000000	49.000000	71.000000
35.833362	36.040827	58.000000	49.000000	71.000000
36.041695	36.249161	60.000000	49.000000	71.000000
36.250029	36.318605	63.000000	49.000000	71.000000
36.319473	36.388050	60.000000	49.000000	71.000000
36.388918	36.457494	63.000000	49.000000	71.000000
36.666696	36.874161	60.000000	49.000000	71.000000
36.875029	37.082495	63.000000	49.000000	71.000000
37.083363	37.290828	58.000000	49.000000	71.000000
37.291696	37.499162	60.000000	49.000000	71.000000
37.500030	37.638051	53.000000	49.000000	71.000000
37.638919	37.776940	55.000000	49.000000	71.000000
37.777808	37.915829	58.000000	49.000000	71.000000
37.916697	38.054718	60.000000	49.000000	71.000000
38.055586	38.193607	63.000000	49.000000	71.000000
38.194475	38.332496	65.000000	49.000000	71.000000
38.333364	38.540829	63.000000	80.000000	71.000000
38.541697	38.957496	51.000000	80.000000	71.000000
38.958364	39.165830	65.000000	80.000000	71.000000
39.166698	39.582497	51.000000	80.000000	71.000000
39.583365	39.790830	67.000000	80.000000	71.000000
39.791698	40.207497	51.000000	80.000000	71.000000
40.208365	40.415831	70.000000	80.000000	71.000000
40.416699	40.832498	51.000000	80.000000	71.000000
40.833366	41.040831	72.000000	80.000000	71.000000
41.041699	41.249165	63.000000	80.000000	71.000000
41.250033	41.457498	75.000000	80.000000	71.000000
41.458366	41.665832	63.000000	80.000000	71.000000
41.666700	41.874165	72.000000	80.000000	71.000000
41.875033	42.290832	51.000000	80.000000	71.000000
42.291700	42.499166	70.000000	80.000000	71.000000
42.500034	42.915833	51.000000	80.000000	71.000000
42.916701	43.124166	67.000000	80.000000	71.000000
43.125034	43.436667	51.000000	80.000000	71.000000
43.437535	43.540833	65.000000	80.000000	71.000000
43.541701	43.645000	67.000000	80.000000	71.000000
43.645868	43.749167	70.000000	80.000000	71.000000
43.750035	43.853334	72.000000	80.000000	71.000000
43.854202	43.957500	70.000000	80.000000	71.000000
43.958368	44.061667	67.000000	80.000000	71.000000
44.062535	44.165834	65.000000	80.000000	71.000000
44.166702	44.374167	63.000000	80.000000	71.000000
44.375035	44.790834	51.000000	80.000000	71.000000
44.791702	44.999168	65.000000	80.000000	71.000000
45.000036	45.415835	51.000000	80.000000	71.000000
45.416703	45.624168	67.000000	80.000000	71.000000
45.625036	46.040835	51.000000	80.000000	71.000000
46.041703	46.249169	70.000000	80.000000	71.000000
46.250037	46.665836	51.000000	80.000000	71.000000
46.666704	46.874169	72.000000	80.000000	71.000000
46.875037	47.082503	63.000000	80.000000	71.000000
47.083371	47.290836	75.000000	80.000000	71.000000
47.291704	47.499170	63.000000	80.000000	71.000000
47.500038	47.707503	72.000000	80.000000	71.000000
47.708371	48.124170	51.000000	80.000000	71.000000
48.125038	48.332504	72.000000	80.000000	71.000000
48.333372	48.749171	51.000000	80.000000	71.000000
48.750039	48.957504	67.000000	80.000000	71.000000
48.958372	49.270005	51.000000	80.000000	71.000000
49.270873	49.374171	65.000000	80.000000	71.000000
49.375039	49.478338	67.000000	80.000000	71.000000
49.479206	49.582505	70.000000	80.000000	71.000000
49.583373	49.686672	72.000000	80.000000	71.000000
49.687540	49.790838	70.000000	80.000000	71.000000
49.791706	49.895005	67.000000	65.000000	71.000000
49.895873	49.999172	65.000000	49.000000	71.000000
50.000040	50.207505	63.000000	33.000000	71.000000
50.208373	50.415839	51.000000	33.000000	71.000000
50.416707	50.554728	63.000000	33.000000	71.000000
50.555596	50.693617	63.000000	33.000000	71.000000
50.694485	50.832506	63.000000	33.000000	71.000000
50.833374	51.040839	65.000000	33.000000	71.000000
51.041707	51.249173	63.000000	33.000000	71.000000
51.250041	51.457506	65.000000	33.000000	71.000000
51.458374	51.665840	67.000000	33.000000	71.000000
51.666708	51.874173	70.000000	33.000000	71.000000
51.875041	52.082507	67.000000	33.000000	71.000000
52.083375	52.290840	70.000000	33.000000	71.000000
52.291708	52.499174	72.000000	33.000000	71.000000
52.500042	52.707507	70.000000	33.000000	71.000000
52.708375	52.915841	72.000000	33.000000	71.000000
52.916709	53.124174	75.000000	33.000000	71.000000
53.125042	53.332508	77.000000	33.000000	71.000000
53.333376	53.540841	79.000000	33.000000	71.000000
53.541709	53.749175	51.000000	33.000000	71.000000
53.750043	53.888064	79.000000	33.000000	71.000000
53.888932	54.026953	79.000000	33.000000	71.000000
54.027821	54.165842	79.000000	33.000000	71.000000
54.166710	54.374175	77.000000	33.000000	71.000000
54.375043	54.582509	75.000000	33.000000	71.000000
54.583377	54.790842	77.000000	33.000000	71.000000
54.791710	54.999176	75.000000	33.000000	71.000000
55.000044	55.207509	72.000000	33.000000	71.000000
55.208377	55.415843	75.000000	33.000000	71.000000
55.416711	55.624176	72.000000	33.000000	71.000000
55.625044	55.832510	75.000000	33.000000	71.000000
55.833378	56.040843	70.000000	33.000000	71.000000
56.041711	56.249177	72.000000	33.000000	71.000000
56.250045	56.457510	70.000000	33.000000	71.000000
56.458378	56.665844	67.000000	33.000000	71.000000
56.666712	57.082511	65.000000	33.000000	71.000000
57.083379	57.221400	58.000000	33.000000	71.000000
57.222268	57.360289	58.000000	33.000000	71.000000
57.361157	57.499178	58.000000	33.000000	71.000000
57.500046	57.707511	65.000000	33.000000	71.000000
57.708379	57.915845	63.000000	33.000000	71.000000
57.916713	58.124178	65.000000	33.000000	71.000000
58.125046	58.332512	67.000000	33.000000	71.000000
58.333380	58.540845	65.000000	33.000000	71.000000
58.541713	58.749179	58.000000	33.000000	71.000000
58.750047	58.888068	65.000000	33.000000	71.000000
58.888936	59.026957	65.000000	33.000000	71.000000
59.027825	59.165846	65.000000	33.000000	71.000000
59.166714	59.374179	67.000000	33.000000	71.000000
59.375047	59.582513	65.000000	33.000000	71.000000
59.583381	59.790846	67.000000	33.000000	71.000000
59.791714	59.999180	70.000000	33.000000	71.000000
60.000048	60.415847	72.000000	33.000000	71.000000
60.416715	60.554736	72.000000	33.000000	71.000000
60.555604	60.693625	72.000000	33.000000	71.000000
60.694493	60.832514	72.000000	33.000000	71.000000
60.833382	61.040847	70.000000	33.000000	71.000000
61.041715	61.249181	72.000000	33.000000	71.000000
61.250049	61.457514	70.000000	33.000000	71.000000
61.458382	61.665848	67.000000	33.000000	71.000000
61.666716	61.874181	70.000000	33.000000	71.000000
61.875049	62.082515	67.000000	33.000000	71.000000
62.083383	62.290848	65.000000	33.000000	71.000000
62.291716	62.499182	67.000000	33.000000	71.000000
62.500050	62.707515	65.000000	33.000000	71.000000
62.708383	62.915849	67.000000	33.000000	71.000000
62.916717	63.124182	58.000000	33.000000	71.000000
63.125050	63.332516	60.000000	33.000000	71.000000
63.333384	63.540849	63.000000	33.000000	71.000000
63.541717	63.749183	51.000000	33.000000	71.000000
63.750051	63.888072	63.000000	33.000000	71.000000
63.888940	64.026961	63.000000	33.000000	71.000000
64.027829	64.165850	63.000000	33.000000	71.000000
64.166718	64.374183	65.000000	33.000000	71.000000
64.375051	64.582517	63.000000	33.000000	71.000000
64.583385	64.790850	65.000000	33.000000	71.000000
64.791718	64.999184	67.000000	33.000000	71.000000
65.000052	65.207517	70.000000	33.000000	71.000000
65.208385	65.415851	67.000000	33.000000	71.000000
65.416719	65.624184	70.000000	33.000000	71.000000
65.625052	65.832518	72.000000	33.000000	71.000000
65.833386	66.040851	70.000000	33.000000	71.000000
66.041719	66.249185	72.000000	33.000000	71.000000
66.250053	66.457518	75.000000	33.000000	71.000000
66.458386	66.665852	77.000000	33.000000	71.000000
66.666720	66.874185	79.000000	33.000000	71.000000
66.875053	67.082519	51.000000	33.000000	71.000000
67.083387	67.221408	79.000000	33.000000	71.000000
67.222276	67.360297	79.000000	33.000000	71.000000
67.361165	67.499186	79.000000	33.000000	71.000000
67.500054	67.707519	77.000000	33.000000	71.000000
67.708387	67.915853	75.000000	33.000000	71.000000
67.916721	68.124186	77.000000	33.000000	71.000000
68.125054	68.332520	75.000000	33.000000	71.000000
68.333388	68.540853	72.000000	33.000000	71.000000
68.541721	68.749187	75.000000	33.000000	71.000000
68.750055	68.957520	72.000000	33.000000	71.000000
68.958388	69.165854	75.000000	33.000000	71.000000
69.166722	69.374187	70.000000	33.000000	71.000000
69.375055	69.582521	72.000000	33.000000	71.000000
69.583389	69.790854	70.000000	33.000000	71.000000
69.791722	69.999188	67.000000	33.000000	71.000000
70.000056	70.415855	65.000000	33.000000	71.000000
70.416723	70.554744	58.000000	33.000000	71.000000
70.555612	70.693633	58.000000	33.000000	71.000000
70.694501	70.832522	58.000000	33.000000	71.000000
70.833390	71.040855	65.000000	33.000000	71.000000
71.041723	71.249189	63.000000	33.000000	71.000000
71.250057	71.457522	65.000000	33.000000	71.000000
71.458390	71.665856	67.000000	33.000000	71.000000
71.666724	71.874189	65.000000	33.000000	71.000000
71.875057	72.082523	58.000000	33.000000	71.000000
72.083391	72.221412	65.000000	33.000000	71.000000
72.222280	72.360301	65.000000	33.000000	71.000000
72.361169	72.499190	65.000000	33.000000	71.000000
72.500058	72.707523	67.000000	33.000000	71.000000
72.708391	72.915857	65.000000	33.000000	71.000000
72.916725	73.124190	67.000000	33.000000	71.000000
73.125058	73.332524	70.000000	33.000000	71.000000
73.333392	73.749191	72.000000	33.000000	71.000000
73.750059	73.888080	72.000000	33.000000	71.000000
73.888948	74.026969	72.000000	33.000000	71.000000
74.027837	74.165858	72.000000	33.000000	71.000000
74.166726	74.374191	70.000000	33.000000	71.000000
74.375059	74.582525	72.000000	33.000000	71.000000
74.583393	74.790858	72.000000	33.000000	71.000000
74.791726	74.999192	67.000000	33.000000	71.000000
75.000060	75.207525	70.000000	33.000000	71.000000
75.208393	75.415859	67.000000	33.000000	71.000000
75.416727	75.624192	65.000000	33.000000	71.000000
75.625060	75.832526	67.000000	33.000000	71.000000
75.833394	76.040859	65.000000	33.000000	71.000000
76.041727	76.249193	67.000000	33.000000	71.000000
76.250061	76.457526	58.000000	33.000000	71.000000
76.458394	76.665860	60.000000	33.000000	71.000000
76.666728	76.874193	63.000000	33.000000	71.000000
76.875061	76.978360	53.000000	33.000000	71.000000
76.979228	77.082527	53.000000	33.000000	71.000000
77.083395	77.186694	55.000000	33.000000	71.000000
77.187562	77.290860	55.000000	33.000000	71.000000
77.291728	77.395027	58.000000	33.000000	71.000000
77.395895	77.499194	58.000000	33.000000	71.000000
77.500062	77.707527	60.000000	33.000000	71.000000
77.708395	77.915861	63.000000	33.000000	71.000000
77.916729	78.124194	58.000000	33.000000	71.000000
78.125062	78.332528	60.000000	33.000000	71.000000
78.333396	78.540861	63.000000	33.000000	71.000000
78.541729	78.645028	53.000000	33.000000	71.000000
78.645896	78.749195	53.000000	33.000000	71.000000
78.750063	78.853362	55.000000	33.000000	71.000000
78.854230	78.957528	55.000000	33.000000	71.000000
78.958396	79.061695	58.000000	33.000000	71.000000
79.062563	79.165862	58.000000	33.000000	71.000000
79.166730	79.374195	60.000000	33.000000	71.000000
79.375063	79.582529	65.000000	33.000000	71.000000
79.583397	79.790862	58.000000	33.000000	71.000000
79.791730	79.999196	60.000000	33.000000	71.000000
80.000064	80.207529	63.000000	33.000000	71.000000
80.208397	80.311696	55.000000	33.000000	71.000000
80.312564	80.415863	55.000000	36.000000	71.000000
80.416731	80.520030	58.000000	39.000000	71.000000
80.520898	80.624196	58.000000	43.000000	71.000000
80.625064	80.728363	60.000000	46.000000	71.000000
80.729231	80.832530	60.000000	49.000000	71.000000
80.833398	80.936697	63.000000	53.000000	71.000000
80.937565	81.040863	63.000000	56.000000	71.000000
81.041731	81.145030	65.000000	59.000000	71.000000
81.145898	81.249197	65.000000	63.000000	71.000000
81.250065	81.353364	70.000000	66.000000	71.000000
81.354232	81.457530	70.000000	69.000000	71.000000
81.458398	81.561697	72.000000	73.000000	71.000000
81.562565	81.665864	72.000000	76.000000	71.000000
81.666732	81.717947	75.000000	80.000000	71.000000
